# time (ps)       Fabs (J/m^2)       E_el (J/m^2)      E_lat (J/m^2)       Delta_E (%)
        0.00001000           0.00644755           0.00640337           0.00000003      0.00685
        0.01000000           6.43270376           6.34621157           0.01358959      0.01133
        0.02000000          12.77699206          12.58205513           0.04191190      0.01198
        0.03000000          18.94803575          18.63509999           0.07994261      0.01230
        0.04000000          24.86802181          24.43164246           0.12563964      0.01250
        0.05000000          30.46906728          29.90645114           0.17770596      0.01263
        0.06000000          35.69548193          35.00579587           0.23517637      0.01273
        0.07000000          40.50525933          39.68917119           0.29727086      0.01281
        0.08000000          44.87074374          43.93006100           0.36332905      0.01287
        0.09000000          48.77848908          47.71585133           0.43277718      0.01291
        0.10000000          52.22838834          51.04699915           0.50511010      0.01295
        0.11000000          55.23220153          53.93559596           0.57988079      0.01298
        0.12000000          57.81164355          56.40349122           0.65669389      0.01300
        0.13000000          59.99620851          58.48015269           0.73520114      0.01302
        0.14000000          61.82090443          60.20043685           0.81509795      0.01303
        0.15000000          63.32405462          61.60242444           0.89612022      0.01304
        0.16000000          64.54529340          62.72544741           0.97804135      0.01304
        0.17000000          65.52384818          63.60839831           1.06066909      0.01305
        0.18000000          66.29716244          64.28837607           1.14384235      0.01305
        0.19000000          66.89987916          64.79968710           1.22742788      0.01305
        0.20000000          67.36317328          65.17319089           1.31131692      0.01304
        0.21000000          67.71439928          65.43595612           1.39542194      0.01304
        0.22000000          67.97700419          65.61117838           1.47967348      0.01304
        0.23000000          68.17064878          65.71830299           1.56401721      0.01303
        0.24000000          68.31147847          65.77329518           1.64841127      0.01303
        0.25000000          68.41248963          65.78900395           1.73282385      0.01302
        0.26000000          68.48394433          65.77557337           1.81723113      0.01301
        0.27000000          68.53379587          65.74086408           1.90161557      0.01301
        0.28000000          68.56809734          65.69085789           1.98596442      0.01300
        0.29000000          68.59137466          65.63002683           2.07026854      0.01299
        0.30000000          68.60695367          65.56165674           2.15452149      0.01298
        0.31000000          68.61723697          65.48812109           2.23871880      0.01298
        0.32000000          68.62393137          65.41110577           2.32285741      0.01297
        0.33000000          68.62822948          65.33178867           2.40693523      0.01296
        0.34000000          68.63095112          65.25097939           2.49095090      0.01295
        0.35000000          68.63265080          65.16922550           2.57490351      0.01295
        0.36000000          68.63369766          65.08689144           2.65879249      0.01294
        0.37000000          68.63433358          65.00421601           2.74261746      0.01293
        0.38000000          68.63471456          64.92135318           2.82637819      0.01292
        0.39000000          68.63493967          64.83840073           2.91007456      0.01292
        0.40000000          68.63507084          64.75541979           2.99370647      0.01291
        0.41000000          68.63514623          64.67244799           3.07727388      0.01290
        0.42000000          68.63518896          64.58950813           3.16077677      0.01289
        0.43000000          68.63521285          64.50661383           3.24421513      0.01289
        0.44000000          68.63522602          64.42377310           3.32758897      0.01288
        0.45000000          68.63523318          64.34099055           3.41089828      0.01287
        0.46000000          68.63523702          64.25826884           3.49414307      0.01286
        0.47000000          68.63523905          64.17560944           3.57732336      0.01286
        0.48000000          68.63524011          64.09301316           3.66043915      0.01285
        0.49000000          68.63524066          64.01048043           3.74349046      0.01284
        0.50000000          68.63524093          63.92801150           3.82647730      0.01283
        0.51000000          68.63524107          63.84560646           3.90939968      0.01282
        0.52000000          68.63524114          63.76326538           3.99225761      0.01282
        0.53000000          68.63524117          63.68098827           4.07505111      0.01281
        0.54000000          68.63524119          63.59877514           4.15778020      0.01280
        0.55000000          68.63524120          63.51662599           4.24044487      0.01279
        0.56000000          68.63524120          63.43454081           4.32304515      0.01279
        0.57000000          68.63524120          63.35251957           4.40558106      0.01278
        0.58000000          68.63524120          63.27056229           4.48805259      0.01277
        0.59000000          68.63524120          63.18866892           4.57045977      0.01276
        0.60000000          68.63524120          63.10683948           4.65280261      0.01276
        0.61000000          68.63524120          63.02507394           4.73508112      0.01275
        0.62000000          68.63524120          62.94337228           4.81729532      0.01274
        0.63000000          68.63524120          62.86173451           4.89944522      0.01273
        0.64000000          68.63524120          62.78016059           4.98153083      0.01273
        0.65000000          68.63524120          62.69865053           5.06355216      0.01272
        0.66000000          68.63524120          62.61720430           5.14550924      0.01271
        0.67000000          68.63524120          62.53582190           5.22740206      0.01271
        0.68000000          68.63524120          62.45450330           5.30923065      0.01270
        0.69000000          68.63524120          62.37324850           5.39099502      0.01269
        0.70000000          68.63524120          62.29205749           5.47269518      0.01268
        0.71000000          68.63524120          62.21093024           5.55433115      0.01268
        0.72000000          68.63524120          62.12986675           5.63590293      0.01267
        0.73000000          68.63524120          62.04886701           5.71741054      0.01266
        0.74000000          68.63524120          61.96793099           5.79885400      0.01265
        0.75000000          68.63524120          61.88705870           5.88023332      0.01265
        0.76000000          68.63524120          61.80625010           5.96154851      0.01264
        0.77000000          68.63524120          61.72550520           6.04279958      0.01263
        0.78000000          68.63524120          61.64482397           6.12398656      0.01262
        0.79000000          68.63524120          61.56420641           6.20510944      0.01262
        0.80000000          68.63524120          61.48365250           6.28616825      0.01261
        0.81000000          68.63524120          61.40316223           6.36716299      0.01260
        0.82000000          68.63524120          61.32273558           6.44809369      0.01259
        0.83000000          68.63524120          61.24237254           6.52896035      0.01259
        0.84000000          68.63524120          61.16207310           6.60976299      0.01258
        0.85000000          68.63524120          61.08183725           6.69050162      0.01257
        0.86000000          68.63524120          61.00166497           6.77117626      0.01256
        0.87000000          68.63524120          60.92155624           6.85178691      0.01256
        0.88000000          68.63524120          60.84151106           6.93233360      0.01255
        0.89000000          68.63524120          60.76152941           7.01281633      0.01254
        0.90000000          68.63524120          60.68161128           7.09323512      0.01254
        0.91000000          68.63524120          60.60175665           7.17358998      0.01253
        0.92000000          68.63524120          60.52196552           7.25388093      0.01252
        0.93000000          68.63524120          60.44223786           7.33410797      0.01251
        0.94000000          68.63524120          60.36257367           7.41427113      0.01251
        0.95000000          68.63524120          60.28297293           7.49437041      0.01250
        0.96000000          68.63524120          60.20343563           7.57440583      0.01249
        0.97000000          68.63524120          60.12396176           7.65437740      0.01248
        0.98000000          68.63524120          60.04455129           7.73428513      0.01248
        0.99000000          68.63524120          59.96520423           7.81412905      0.01247
        1.00000000          68.63524120          59.88592055           7.89390916      0.01246
        1.01000000          68.63524120          59.80670024           7.97362547      0.01246
        1.02000000          68.63524120          59.72754329           8.05327801      0.01245
        1.03000000          68.63524120          59.64844968           8.13286677      0.01244
        1.04000000          68.63524120          59.56941941           8.21239178      0.01243
        1.05000000          68.63524120          59.49045245           8.29185305      0.01243
        1.06000000          68.63524120          59.41154880           8.37125060      0.01242
        1.07000000          68.63524120          59.33270845           8.45058443      0.01241
        1.08000000          68.63524120          59.25393137           8.52985456      0.01241
        1.09000000          68.63524120          59.17521755           8.60906100      0.01240
        1.10000000          68.63524120          59.09656699           8.68820377      0.01239
        1.11000000          68.63524120          59.01797966           8.76728288      0.01238
        1.12000000          68.63524120          58.93945556           8.84629835      0.01238
        1.13000000          68.63524120          58.86099467           8.92525018      0.01237
        1.14000000          68.63524120          58.78259698           9.00413839      0.01236
        1.15000000          68.63524120          58.70426247           9.08296300      0.01236
        1.16000000          68.63524120          58.62599113           9.16172401      0.01235
        1.17000000          68.63524120          58.54778295           9.24042145      0.01234
        1.18000000          68.63524120          58.46963792           9.31905532      0.01233
        1.19000000          68.63524120          58.39155602           9.39762564      0.01233
        1.20000000          68.63524120          58.31353723           9.47613242      0.01232
        1.21000000          68.63524120          58.23558155           9.55457568      0.01231
        1.22000000          68.63524120          58.15768896           9.63295543      0.01231
        1.23000000          68.63524120          58.07985944           9.71127167      0.01230
        1.24000000          68.63524120          58.00209299           9.78952444      0.01229
        1.25000000          68.63524120          57.92438959           9.86771373      0.01228
        1.26000000          68.63524120          57.84674922           9.94583957      0.01228
        1.27000000          68.63524120          57.76917188          10.02390197      0.01227
        1.28000000          68.63524120          57.69165755          10.10190093      0.01226
        1.29000000          68.63524120          57.61420621          10.17983648      0.01226
        1.30000000          68.63524120          57.53681786          10.25770863      0.01225
        1.31000000          68.63524120          57.45949247          10.33551738      0.01224
        1.32000000          68.63524120          57.38223004          10.41326277      0.01223
        1.33000000          68.63524120          57.30503056          10.49094479      0.01223
        1.34000000          68.63524120          57.22789400          10.56856346      0.01222
        1.35000000          68.63524120          57.15082036          10.64611880      0.01221
        1.36000000          68.63524120          57.07380962          10.72361082      0.01221
        1.37000000          68.63524120          56.99686176          10.80103953      0.01220
        1.38000000          68.63524120          56.91997678          10.87840494      0.01219
        1.39000000          68.63524120          56.84315467          10.95570708      0.01219
        1.40000000          68.63524120          56.76639540          11.03294595      0.01218
        1.41000000          68.63524120          56.68969896          11.11012157      0.01217
        1.42000000          68.63524120          56.61306534          11.18723395      0.01216
        1.43000000          68.63524120          56.53649453          11.26428310      0.01216
        1.44000000          68.63524120          56.45998652          11.34126905      0.01215
        1.45000000          68.63524120          56.38354128          11.41819179      0.01214
        1.46000000          68.63524120          56.30715881          11.49505135      0.01214
        1.47000000          68.63524120          56.23083909          11.57184774      0.01213
        1.48000000          68.63524120          56.15458211          11.64858097      0.01212
        1.49000000          68.63524120          56.07838786          11.72525106      0.01212
        1.50000000          68.63524120          56.00225631          11.80185802      0.01211
        1.51000000          68.63524120          55.92618747          11.87840187      0.01210
        1.52000000          68.63524120          55.85018131          11.95488261      0.01210
        1.53000000          68.63524120          55.77423782          12.03130026      0.01209
        1.54000000          68.63524120          55.69835699          12.10765484      0.01208
        1.55000000          68.63524120          55.62253880          12.18394636      0.01207
        1.56000000          68.63524120          55.54678324          12.26017483      0.01207
        1.57000000          68.63524120          55.47109030          12.33634027      0.01206
        1.58000000          68.63524120          55.39545996          12.41244269      0.01205
        1.59000000          68.63524120          55.31989221          12.48848210      0.01205
        1.60000000          68.63524120          55.24438703          12.56445852      0.01204
        1.61000000          68.63524120          55.16894442          12.64037196      0.01203
        1.62000000          68.63524120          55.09356435          12.71622244      0.01203
        1.63000000          68.63524120          55.01824682          12.79200997      0.01202
        1.64000000          68.63524120          54.94299181          12.86773456      0.01201
        1.65000000          68.63524120          54.86779930          12.94339622      0.01201
        1.66000000          68.63524120          54.79266929          13.01899498      0.01200
        1.67000000          68.63524120          54.71760176          13.09453084      0.01199
        1.68000000          68.63524120          54.64259669          13.17000382      0.01199
        1.69000000          68.63524120          54.56765408          13.24541393      0.01198
        1.70000000          68.63524120          54.49277390          13.32076119      0.01197
        1.71000000          68.63524120          54.41795615          13.39604560      0.01197
        1.72000000          68.63524120          54.34320081          13.47126719      0.01196
        1.73000000          68.63524120          54.26850787          13.54642597      0.01195
        1.74000000          68.63524120          54.19387731          13.62152195      0.01194
        1.75000000          68.63524120          54.11930912          13.69655514      0.01194
        1.76000000          68.63524120          54.04480328          13.77152556      0.01193
        1.77000000          68.63524120          53.97035979          13.84643323      0.01192
        1.78000000          68.63524120          53.89597863          13.92127815      0.01192
        1.79000000          68.63524120          53.82165978          13.99606034      0.01191
        1.80000000          68.63524120          53.74740323          14.07077982      0.01190
        1.81000000          68.63524120          53.67320897          14.14543659      0.01190
        1.82000000          68.63524120          53.59907698          14.22003068      0.01189
        1.83000000          68.63524120          53.52500725          14.29456209      0.01188
        1.84000000          68.63524120          53.45099977          14.36903084      0.01188
        1.85000000          68.63524120          53.37705452          14.44343694      0.01187
        1.86000000          68.63524120          53.30317149          14.51778042      0.01186
        1.87000000          68.63524120          53.22935066          14.59206127      0.01186
        1.88000000          68.63524120          53.15559202          14.66627952      0.01185
        1.89000000          68.63524120          53.08189556          14.74043518      0.01184
        1.90000000          68.63524120          53.00826126          14.81452826      0.01184
        1.91000000          68.63524120          52.93468911          14.88855878      0.01183
        1.92000000          68.63524120          52.86117909          14.96252676      0.01182
        1.93000000          68.63524120          52.78773119          15.03643219      0.01182
        1.94000000          68.63524120          52.71434541          15.11027511      0.01181
        1.95000000          68.63524120          52.64102171          15.18405552      0.01180
        1.96000000          68.63524120          52.56776010          15.25777343      0.01180
        1.97000000          68.63524120          52.49456055          15.33142887      0.01179
        1.98000000          68.63524120          52.42142305          15.40502184      0.01178
        1.99000000          68.63524120          52.34834759          15.47855236      0.01178
        2.00000000          68.63524120          52.27533416          15.55202045      0.01177
        2.01000000          68.63524120          52.20238273          15.62542611      0.01176
        2.02000000          68.63524120          52.12949330          15.69876936      0.01176
        2.03000000          68.63524120          52.05666586          15.77205022      0.01175
        2.04000000          68.63524120          51.98390038          15.84526870      0.01174
        2.05000000          68.63524120          51.91119685          15.91842481      0.01174
        2.06000000          68.63524120          51.83855527          15.99151857      0.01173
        2.07000000          68.63524120          51.76597561          16.06454999      0.01172
        2.08000000          68.63524120          51.69345787          16.13751908      0.01172
