# time (ps)       Fabs (J/m^2)       E_el (J/m^2)      E_lat (J/m^2)       Delta_E (%)
        0.00001000           0.00000000           0.00000000           0.00000000      0.01039
        0.01000000           0.00000000           0.00000000           0.00000000      0.02060
        0.02000000           0.00000000           0.00000000           0.00000000      0.02101
        0.03000000           0.00000000           0.00000000           0.00000000      0.02049
        0.04000000           0.00000000           0.00000000           0.00000000      0.02001
        0.05000000           0.00000001           0.00000001           0.00000000      0.01971
        0.06000000           0.00000001           0.00000001           0.00000000      0.01954
        0.07000000           0.00000003           0.00000003           0.00000000      0.01947
        0.08000000           0.00000006           0.00000006           0.00000000      0.01948
        0.09000000           0.00000013           0.00000013           0.00000000      0.01951
        0.10000000           0.00000027           0.00000026           0.00000000      0.01956
        0.11000000           0.00000055           0.00000053           0.00000001      0.01962
        0.12000000           0.00000110           0.00000107           0.00000001      0.01969
        0.13000000           0.00000217           0.00000210           0.00000003      0.01975
        0.14000000           0.00000423           0.00000408           0.00000006      0.01982
        0.15000000           0.00000811           0.00000783           0.00000012      0.01989
        0.16000000           0.00001535           0.00001482           0.00000022      0.01996
        0.17000000           0.00002866           0.00002766           0.00000043      0.02003
        0.18000000           0.00005281           0.00005094           0.00000080      0.02010
        0.19000000           0.00009600           0.00009257           0.00000149      0.02017
        0.20000000           0.00017220           0.00016599           0.00000273      0.02025
        0.21000000           0.00030480           0.00029367           0.00000494      0.02032
        0.22000000           0.00053235           0.00051267           0.00000882      0.02040
        0.23000000           0.00091747           0.00088315           0.00001553      0.02048
        0.24000000           0.00156031           0.00150121           0.00002701      0.02057
        0.25000000           0.00261860           0.00251815           0.00004635      0.02066
        0.26000000           0.00433683           0.00416832           0.00007850      0.02075
        0.27000000           0.00708821           0.00680916           0.00013118      0.02086
        0.28000000           0.01143335           0.01097724           0.00021622      0.02098
        0.29000000           0.01820111           0.01746531           0.00035137      0.02112
        0.30000000           0.02859724           0.02742585           0.00056260      0.02129
        0.31000000           0.04434739           0.04250749           0.00088696      0.02149
        0.32000000           0.06788075           0.06503026           0.00137560      0.02173
        0.33000000           0.10255999           0.09820555           0.00209695      0.02201
        0.34000000           0.15296127           0.14640474           0.00313937      0.02234
        0.35000000           0.22520494           0.21547742           0.00461316      0.02271
        0.36000000           0.32733283           0.31311548           0.00665167      0.02311
        0.37000000           0.46972142           0.44925274           0.00941156      0.02354
        0.38000000           0.66551227           0.63648187           0.01307231      0.02398
        0.39000000           0.93103144           0.89046106           0.01783505      0.02442
        0.40000000           1.28616008           1.23027345           0.02392090      0.02485
        0.41000000           1.75460857           1.67869324           0.03156867      0.02527
        0.42000000           2.36403924           2.26230502           0.04103213      0.02568
        0.43000000           3.14597866           3.01141903           0.05257679      0.02606
        0.44000000           4.13546144           3.95972617           0.06647636      0.02642
        0.45000000           5.37035550           5.14364435           0.08300892      0.02676
        0.46000000           6.89033419           6.60132249           0.10245288      0.02708
        0.47000000           8.73548403           8.37129192           0.12508270      0.02737
        0.48000000          10.94456745          10.49078412           0.15116446      0.02765
        0.49000000          13.55299596          12.99376885           0.18095131      0.02791
        0.50000000          16.59060656          15.90880319           0.21467881      0.02816
        0.51000000          20.07937068          19.25681685           0.25256037      0.02839
        0.52000000          24.03119347          23.04898699           0.29478279      0.02861
        0.53000000          28.44597953          27.28487325           0.34150219      0.02881
        0.54000000          33.31014357          31.95098552           0.39284027      0.02901
        0.55000000          38.59572917          37.01994241           0.44888138      0.02920
        0.56000000          44.26026542          42.45034533           0.50967014      0.02938
        0.57000000          50.24744052          48.18744417           0.57521005      0.02955
        0.58000000          56.48860906          54.16460963           0.64546300      0.02971
        0.59000000          62.90507973          60.30555988           0.72034973      0.02987
        0.60000000          69.41106189          66.52722267           0.79975141      0.03003
        0.61000000          75.91708910          72.74305588           0.88351203      0.03017
        0.62000000          82.33369304          78.86660654           0.97144185      0.03031
        0.63000000          88.57507764          84.81506565           1.06332152      0.03045
        0.64000000          94.56254291          90.51257624           1.15890692      0.03057
        0.65000000         100.22743213          95.89307580           1.25793447      0.03069
        0.66000000         105.51342029         100.90249761           1.36012672      0.03081
        0.67000000         110.37802215         105.50021385           1.46519811      0.03092
        0.68000000         114.79326672         109.65967048           1.57286053      0.03102
        0.69000000         118.74555466         113.36823074           1.68282870      0.03111
        0.70000000         122.23477775         116.62630534           1.79482507      0.03120
        0.71000000         125.27283003         119.44589567           1.90858410      0.03128
        0.72000000         127.88167393         121.84870897           2.02385585      0.03135
        0.73000000         130.09113975         123.86401876           2.14040880      0.03141
        0.74000000         131.93663454         125.52644097           2.25803186      0.03147
        0.75000000         133.45691845         126.87377897           2.37653551      0.03152
        0.76000000         134.69207758         127.94506188           2.49575225      0.03156
        0.77000000         135.68178645         128.77886592           2.61553631      0.03160
        0.78000000         136.46391537         129.41197164           2.73576276      0.03163
        0.79000000         137.07350218         129.87837515           2.85632617      0.03165
        0.80000000         137.54207718         130.20864203           2.97713891      0.03167
        0.81000000         137.89730664         130.42956968           3.09812927      0.03169
        0.82000000         138.16290487         130.56410920           3.21923940      0.03170
        0.83000000         138.35875673         130.63149040           3.34042334      0.03171
        0.84000000         138.50119166         130.64749242           3.46164511      0.03171
        0.85000000         138.60335420         130.62480675           3.58287694      0.03171
        0.86000000         138.67562339         130.57344657           3.70409765      0.03171
        0.87000000         138.72604316         130.50116580           3.82529136      0.03171
        0.88000000         138.76073561         130.41386061           3.94644627      0.03171
        0.89000000         138.78427826         130.31593553           4.06755373      0.03171
        0.90000000         138.80003485         130.21062401           4.18860748      0.03171
        0.91000000         138.81043537         130.10025948           4.30960300      0.03170
        0.92000000         138.81720608         129.98649773           4.43053712      0.03170
        0.93000000         138.82155318         129.87049430           4.55140756      0.03169
        0.94000000         138.82430583         129.75304244           4.67221275      0.03169
        0.95000000         138.82602489         129.63467794           4.79295160      0.03168
        0.96000000         138.82708369         129.51575684           4.91362334      0.03168
        0.97000000         138.82772686         129.39651200           5.03422743      0.03167
        0.98000000         138.82811218         129.27709329           5.15476353      0.03167
        0.99000000         138.82833985         129.15759563           5.27523137      0.03166
        1.00000000         138.82847252         129.03807821           5.39563078      0.03166
        1.01000000         138.82854877         128.91857732           5.51596165      0.03165
        1.02000000         138.82859199         128.79911488           5.63622389      0.03165
        1.03000000         138.82861615         128.67970389           5.75641744      0.03164
        1.04000000         138.82862947         128.56035194           5.87654229      0.03163
        1.05000000         138.82863671         128.44106337           5.99659839      0.03163
        1.06000000         138.82864059         128.32184062           6.11658573      0.03162
        1.07000000         138.82864265         128.20268503           6.23650432      0.03162
        1.08000000         138.82864372         128.08359731           6.35635414      0.03161
        1.09000000         138.82864427         127.96457781           6.47613520      0.03161
        1.10000000         138.82864455         127.84562670           6.59584750      0.03160
        1.11000000         138.82864469         127.72674406           6.71549105      0.03160
        1.12000000         138.82864476         127.60792989           6.83506585      0.03159
        1.13000000         138.82864479         127.48918419           6.95457192      0.03158
        1.14000000         138.82864481         127.37050693           7.07400927      0.03158
        1.15000000         138.82864482         127.25189809           7.19337790      0.03157
        1.16000000         138.82864482         127.13335763           7.31267782      0.03157
        1.17000000         138.82864482         127.01488553           7.43190905      0.03156
        1.18000000         138.82864482         126.89648176           7.55107160      0.03156
        1.19000000         138.82864482         126.77814630           7.67016548      0.03155
        1.20000000         138.82864482         126.65987912           7.78919071      0.03155
        1.21000000         138.82864482         126.54168021           7.90814728      0.03154
        1.22000000         138.82864482         126.42354953           8.02703523      0.03154
        1.23000000         138.82864482         126.30548707           8.14585455      0.03153
        1.24000000         138.82864482         126.18749282           8.26460526      0.03152
        1.25000000         138.82864482         126.06956674           8.38328737      0.03152
        1.26000000         138.82864482         125.95170884           8.50190089      0.03151
        1.27000000         138.82864482         125.83391908           8.62044585      0.03151
        1.28000000         138.82864482         125.71619745           8.73892224      0.03150
        1.29000000         138.82864482         125.59854394           8.85733008      0.03150
        1.30000000         138.82864482         125.48095853           8.97566939      0.03149
        1.31000000         138.82864482         125.36344121           9.09394017      0.03149
        1.32000000         138.82864482         125.24599196           9.21214244      0.03148
        1.33000000         138.82864482         125.12861077           9.33027621      0.03148
        1.34000000         138.82864482         125.01129762           9.44834149      0.03147
        1.35000000         138.82864482         124.89405250           9.56633830      0.03147
        1.36000000         138.82864482         124.77687540           9.68426665      0.03146
        1.37000000         138.82864482         124.65976630           9.80212654      0.03145
        1.38000000         138.82864482         124.54272520           9.91991800      0.03145
        1.39000000         138.82864482         124.42575207          10.03764103      0.03144
        1.40000000         138.82864482         124.30884690          10.15529565      0.03144
        1.41000000         138.82864482         124.19200969          10.27288187      0.03143
        1.42000000         138.82864482         124.07524041          10.39039969      0.03143
        1.43000000         138.82864482         123.95853906          10.50784915      0.03142
        1.44000000         138.82864482         123.84190562          10.62523023      0.03142
        1.45000000         138.82864482         123.72534009          10.74254297      0.03141
        1.46000000         138.82864482         123.60884244          10.85978736      0.03141
        1.47000000         138.82864482         123.49241266          10.97696343      0.03140
        1.48000000         138.82864482         123.37605075          11.09407119      0.03139
        1.49000000         138.82864482         123.25975669          11.21111064      0.03139
        1.50000000         138.82864482         123.14353047          11.32808180      0.03138
        1.51000000         138.82864482         123.02737207          11.44498469      0.03138
        1.52000000         138.82864482         122.91128148          11.56181930      0.03137
        1.53000000         138.82864482         122.79525870          11.67858567      0.03137
        1.54000000         138.82864482         122.67930370          11.79528379      0.03136
        1.55000000         138.82864482         122.56341648          11.91191369      0.03136
        1.56000000         138.82864482         122.44759702          12.02847537      0.03135
        1.57000000         138.82864482         122.33184532          12.14496885      0.03135
        1.58000000         138.82864482         122.21616135          12.26139414      0.03134
        1.59000000         138.82864482         122.10054511          12.37775124      0.03134
        1.60000000         138.82864482         121.98499658          12.49404018      0.03133
        1.61000000         138.82864482         121.86951575          12.61026097      0.03133
        1.62000000         138.82864482         121.75410262          12.72641362      0.03132
        1.63000000         138.82864482         121.63875716          12.84249813      0.03131
        1.64000000         138.82864482         121.52347936          12.95851453      0.03131
        1.65000000         138.82864482         121.40826922          13.07446283      0.03130
        1.66000000         138.82864482         121.29312672          13.19034303      0.03130
        1.67000000         138.82864482         121.17805184          13.30615515      0.03129
        1.68000000         138.82864482         121.06304458          13.42189920      0.03129
        1.69000000         138.82864482         120.94810492          13.53757520      0.03128
        1.70000000         138.82864482         120.83323286          13.65318316      0.03128
        1.71000000         138.82864482         120.71842837          13.76872309      0.03127
        1.72000000         138.82864482         120.60369145          13.88419500      0.03127
        1.73000000         138.82864482         120.48902208          13.99959890      0.03126
        1.74000000         138.82864482         120.37442026          14.11493481      0.03126
        1.75000000         138.82864482         120.25988596          14.23020274      0.03125
        1.76000000         138.82864482         120.14541918          14.34540270      0.03125
        1.77000000         138.82864482         120.03101990          14.46053471      0.03124
        1.78000000         138.82864482         119.91668812          14.57559877      0.03124
        1.79000000         138.82864482         119.80242382          14.69059490      0.03123
        1.80000000         138.82864482         119.68822698          14.80552312      0.03122
        1.81000000         138.82864482         119.57409760          14.92038342      0.03122
        1.82000000         138.82864482         119.46003566          15.03517583      0.03121
        1.83000000         138.82864482         119.34604115          15.14990037      0.03121
        1.84000000         138.82864482         119.23211406          15.26455703      0.03120
        1.85000000         138.82864482         119.11825438          15.37914583      0.03120
        1.86000000         138.82864482         119.00446209          15.49366680      0.03119
        1.87000000         138.82864482         118.89073718          15.60811993      0.03119
        1.88000000         138.82864482         118.77707964          15.72250524      0.03118
        1.89000000         138.82864482         118.66348946          15.83682274      0.03118
        1.90000000         138.82864482         118.54996662          15.95107245      0.03117
        1.91000000         138.82864482         118.43651111          16.06525438      0.03117
        1.92000000         138.82864482         118.32312292          16.17936854      0.03116
        1.93000000         138.82864482         118.20980204          16.29341494      0.03116
        1.94000000         138.82864482         118.09654845          16.40739360      0.03115
        1.95000000         138.82864482         117.98336215          16.52130452      0.03115
        1.96000000         138.82864482         117.87024311          16.63514773      0.03114
        1.97000000         138.82864482         117.75719134          16.74892322      0.03114
        1.98000000         138.82864482         117.64420681          16.86263103      0.03113
        1.99000000         138.82864482         117.53128951          16.97627115      0.03113
        2.00000000         138.82864482         117.41843943          17.08984360      0.03112
        2.01000000         138.82864482         117.30565656          17.20334839      0.03111
        2.02000000         138.82864482         117.19294088          17.31678554      0.03111
        2.03000000         138.82864482         117.08029239          17.43015506      0.03110
        2.04000000         138.82864482         116.96771107          17.54345695      0.03110
        2.05000000         138.82864482         116.85519691          17.65669124      0.03109
        2.06000000         138.82864482         116.74274989          17.76985793      0.03109
        2.07000000         138.82864482         116.63037001          17.88295704      0.03108
        2.08000000         138.82864482         116.51805725          17.99598859      0.03108
